1497689981723,jubbon
1497689981723,maoabc1818
1497689981723,bramantyoa
1497689981723,harshcrop
1497689981723,marcosflorencio
1497689981723,samatt
1497689981723,Spockuto
1497689981723,twstokes
1497689981723,unseen1980
1497689981723,geekodour
1497689981723,narkhedegs
1497689981723,Naramsim
1497689981723,zarnasharma
1497689981723,BobaFett1
1497689981723,vuthaihoc
1497689981723,sandeepl337
1497689981723,Srijancse
1497689981723,nevosial
1497689981723,kaoussi
1497689981723,Kirushanr
1497689981723,BusesCanFly
1497689981723,Lukeskins
1497689981723,cmhedrick
1497689981723,Isaacxpreston
1497689981723,huydalton
1497689981723,KayvanMazaheri
1497689981723,snehesht
1497689981723,tomscholz
1497689981723,TdevM
1497689981723,ManrajGrover
1497689981723,sagitzadik
1497689981723,R-K-H
1497689981723,andyfen
1497689981723,JediKoder
1497689981723,samyk
1497689981723,kietnguyen
1497689981723,juliangarnier
1497689981723,Alphanor
1497689981723,mu373
1497689981723,artemkovalyov
1497689981723,ManuelEPayano
1497689981723,Cyberdr8gon
1497689981723,igoroctaviano
1497689981723,valoraccoon
1497689981723,Sir-hennihau
1497689981723,sthobis
1497689981723,eljobe
1497689981723,callmesusheel
1497689981723,duscheln
1497689981723,iamsainikhil
1497689981723,Tibbs
1497690044899,tchua93
1497690044899,puripant
1497690044899,yuri8p
1497690044899,xocialize
1497690044899,thecoducer
1497690044899,sueck94
1497690044899,jessevdp
1497690044899,Xixiao007
1497690044899,timuckun
1497690044899,JohanCHM
1497690044899,vostokbike
1497690044899,stronk
1497690044899,faizmh
1497690044899,gunchungpyo
1497690044899,maaljam
1497690044899,slgphantom
1497690044899,hpduong
1497690044899,sandeepkv93
1497690044899,minhbk
1497690044899,XcoderG
1497690044899,Rodrigo-Ludgero
1497690044899,ctxhou
1497690044899,sergimiral
1497690044899,MarcoAASilva
1497690044899,Sinan79
1497690044899,hauwenw
1497690044899,jesseminn
1497690044899,Aravindpk
1497690044899,sritampatnaik
1497690044899,matteoscurati
1497690044899,phlipper
1497690044899,avimehenwal
1497690044899,NawaraGFX
1497690044899,mannanali413
1497690044899,who-am-i
1497690044899,badgeek
1497690044899,YujinGaya
1497690044899,zkewal
1497690044899,aliciasavelly
1497690044899,carsonjones
1497690044899,wijae
1497690044899,cotyembry
1497690044899,Kishanjvaghela
1497690044899,shaklev
1497690044899,guptarohit
1497690044899,sente
1497690044899,boyvinall
1497690044899,labnol
1497690044899,TexasBullet26
1497690044899,chasereed
1497690044899,Chan9390
1497690044899,louis9171
1497690044899,JY-D
1497690044899,ziguifrido
1497690044899,j0an
1497690044899,tensortalk
1497690044899,napsternxg
1497690044899,aarohijohal
1497690044899,johngodlee
1497690044899,mpoozd
1497690044899,jenniferkwok
1497690044899,whatAboutJohn
1497690044899,jylopez
1497690044899,giliamverheide
1497690044899,guipacheco2
1497690044899,ansulsahu07
1497690044899,jamyl
1497690044899,cadocx
1497690044899,ahmetshen-us
1497690044899,00ff88
1497690044899,Doppp
1497690044899,cayasso
1497690044899,albertonieto
1497690044899,gusgard
1497690044899,jacksctsai
1497690044899,yasminzy
1497690044899,CrCs2O4
1497690044899,angyvolin
1497690044899,matiasgordon
1497690044899,ihororlovskyi
1497690044899,mix3d
1497690044899,jul-k
1497690044899,atefhares
1497690044899,nirholas
1497690044899,fdfrs
1497690044899,ViltonBonifacio
1497690044899,Jbonez87
1497690044899,k-james
1497690044899,dmyca
1497690044899,andersklenke
1497690044899,SofianMourabit
1497690044899,nextgenxx
1497690044899,albertgrala
1497690044899,pachecoder
1497690044899,lizgw
1497690044899,stradap
1497690044899,nkmajeti
1497690044899,vilav
1497690044899,saurav529
1497690044899,willpa
1497690044899,tracyghz
1497690044899,chrsstrm
1497690044899,goatandsheep
1497690044899,karinakozarova
1497690044899,andrewhansen89
1497690044899,aerohub
1497690044899,victorsmseo
1497690044899,rohit-rk
1497690044899,rborn
1497690044899,Brutalpsy
1497690044899,jdzarate
1497690044899,tanzoor
1497690044899,bochengyang
1497690044899,zenigy
1497690044899,AlexGilleran
1497690044899,rahulchanglani
1497690044899,laithserhan
1497690044899,r4ndr4s4
1497690044899,sergioelmoreno
1497690044899,virajsoni06
1497690044899,gifteconomist
1497690044899,UlisesGascon
1497690044899,bkmeneguello
1497690044899,martynhoyer
1497690044899,asi7296
1497690044899,vabada
1497690044899,rudnichenko
1497690044899,rhamzeh
1497690044899,padurean
1497690044899,nickwong680
1497690044899,artur-sak13
1497690044899,rohanthacker
1497690044899,carloslfu
1497690044899,Emper
1497690044899,FirstMet
1497690044899,sikrew
1497690044899,sedenardi
1497690044899,nikhilmathew
1497690044899,channprj
1497690044899,LeoTanoue
1497690044899,intermundos
1497690044899,smuemd
1497690044899,kuznetsov0209
1497690044899,Woodpecker
1497690044899,pyroflies
1497690044899,sagarkar10
1497690044899,ivanoats
1497690044899,NE-SmallTown
1497690044899,01010000101001100
1497690044899,ShanmugaGanesh
1497690044899,juhokuu
1497690044899,karneaud
1497690044899,nevalashka
1497690044899,samr28
1497690044899,gasparrobi
1497690044899,Auvenell
1497690044899,rousnay
1497690044899,jamesjcai
1497690044899,bboydflo
1497690044899,sgc-code
1497690044899,iamuros
1497690044899,jordiae
1497690044899,koonwah
1497690044899,josheverett
1497690044899,gopala-kr
1497690044899,adam8hospitality
1497690044899,jstalavera
1497690044899,davidtmiller
1497690044899,joshause
1497690044899,astenmies
1497690044899,parthjdabhi
1497690044899,cdrrazan
1497690044899,newswim
1497690044899,ihatemicah
1497690044899,noido
1497690044899,hharchani
1497690044899,g438
1497690044899,Nitinrajyadav
1497690044899,Datcood
1497690044899,isaul
1497690044899,lennardtastic
1497690044899,zornfett
1497690044899,UnityTutors
1497690044899,tommytomatoe
1497690044899,aravinthanpnk
1497690044899,clive21
1497690044899,Theknickerbocker
1497690044899,jaimehta
1497690044899,pcast01
1497690044899,simgooder
1497690044899,wind39
1497690044899,CristianoRC
1497690044899,neelpatel05
1497690044899,sahinercanscs
1497690044899,KiarashS
1497690044899,cadejscroggins
1497690044899,rbarato
1497690044899,Mortezaipo
1497690044899,luciovilla
1497690044899,AntAreS24
1497690044899,ggu
1497690044899,milothemad
1497690044899,ffaassen
1497690044899,brandonhon
1497690044899,yrezgui
1497690044899,uber1geek
1497690044899,stefanivic
1497690044899,jeffreyhanson
1497690044899,silverstone1903
1497690044899,MarkEdmondson1234
1497690044899,m040601
1497690044899,Fitzonreee
1497690044899,kvbbro
1497690044899,tjmahr
1497690044899,ramnathv
1497690044899,tarvos21
1497690044899,TomashKhamlai
1497690044899,wheelhot
1497690044899,mgor3k
1497690044899,tbtommyb
1497690044899,SamWCoding
1497690044899,richcouzzi
1497690044899,LyudmilaP
1497690044899,FreddyFernando
1497690044899,windycitymoon
1497690044899,joelmorrice
1497690044899,statonjr
1497690044899,pankajpatel
1497690044899,vishnu45
1497690044899,MerrylArok
1497690044899,sconstantinides
1497690044899,polyrhythmatic
1497690044899,diztinct-tim
1497690044899,chenmengyang
1497690044899,edinchez
1497690044899,ITJoePC
1497690044899,brianrc
1497690044899,luisuzai
1497690044899,dylanmensaert
1497690044899,zzeleznick
1497690044899,mavnyin88
1497690044899,juanpaguerra090
1497690044899,vikingchess
1497690044899,raonav
1497690044899,ricksherm
1497690044899,dumpofmemory
1497690044899,bawejakunal
1497690044899,dennisd1
1497690044899,jurnalanas
1497690044899,abvrs
1497690044899,RamanViarbitski
1497690044899,jsroyal
1497690044899,m8rge
1497690044899,jenniferkahn
1497690044899,bhaveshgohel
1497690044899,wieblinger1
1497690044899,dasonchan
1497690044899,jmas
1497690044899,Luminger
1497690044899,web20opensource
1497690044899,jonathandarchy
1497690044899,amuganda
1497690044899,ThibaultOsmont
1497690044899,denistsoi
1497690044899,c03rcion
1497690044899,daallgeier
1497690044899,rsales
1497690044899,nurali93
1497690044899,samuelhackwill
1497690044899,mcarlucci
1497690044899,timknight
1497690044899,redmile
1497690044899,brunomonteiro3
1497690044899,13204942
1497690044899,shurui91
1497690044899,nagnath15
1497690044899,lianliu
1497690044899,IrakliK
1497690044899,quiet324
1497690044899,wancg
1497690044899,erikhm17
1497690044899,dr-martin
1497690044899,Genert
1497690044899,byung-u
1497690044899,eebabe
1497690044899,soham2008xyz
1497690044899,deadcoder0904
1497690044899,hugoabonizio
1497690044899,Menti
1497690044899,LearningNerd
1497690044899,shafi49
1497690044899,rgee258
1497690044899,mvanduijker
1497690044899,Min11Benja
1497690044899,bloodwin
1497690044899,ef37
1497690044899,ijparking
1497690044899,iamkevingreen
1497690044899,pushqin
1497690044899,josevaisman
1497690044899,jk273
1497690044899,Esardes
1497690044899,AlexanderElias
1497690044899,tekclik
1497690044899,rad73
1497690044899,klhz1
1497690044899,rajatkhare619
1497690044899,divayprakash
1497690044899,Siyanda
1497690044899,techstreams
1497690044899,finnbuster
1497690044899,shkur
1497690044899,0x4d0x44
1497690044899,Stive-AZ
1497690044899,MarckK
1497690044899,bhch
1497690044899,JBader89
1497690044899,bencasalino
1497690044899,EmmaDeacon
1497690044899,felipeasf
1497690044899,mathdroid
1497690044899,faizilham
1497690044899,mhaidarh
1497690044899,hason
1497690044899,codeb1ooded
1497690044899,ewebdev
1497690044899,Dennise1993
1497690044899,archgirl
1497690044899,nvmottamena
1497690044899,chiraglss
1497690044899,timelf123
1497690044899,karolgorecki
1497690044899,germnor
1497690044899,AlejoJamC
1497690044899,masonicGIT
1497690044899,grosendy
1497690044899,tiborsaas
1497690044899,tunnckoCore
1497690044899,markwilliamfirth
1497690044899,coderaven
1497690044899,jaismeensandhu
1497690044899,acoyfellow
1497690044899,HyperSprite
1497690044899,FusedKush
1497690044899,JoseCage
1497690044899,sarath49
1497690044899,lkorth
1497690044899,qkrsogusl3
1497690044899,treighton
1497690044899,jlengrand
1497690044899,ocularrhythm
1497690044899,jayuloy
1497690044899,mavriel
1497690044899,brant-hwang
1497690044899,kapena
1497690044899,ermaker
1497690044899,ivanbanov
1497690044899,RyanKim01
1497690044899,dimitrisA
1497690044899,designmeltdown
1497690044899,LeahNelson
1497690044899,antekai
1497690044899,escalona
1497690044899,esd100
1497690044899,rafaelmotta
1497690044899,ariestiyansyah
1497690044899,amolgunjal1993
1497690044899,dariaev
1497690044899,thoughtpalette
1497690044899,roycepope
1497690044899,harumburum
1497690044899,karb0n13
1497690044899,jketcham
1497690044899,LandoLabrum
1497690044899,zamkevich
1497690044899,AustinGreen
1497690044899,88ee55
1497690044899,FlorianKromer
1497690044899,tuananh9801
1497690044899,surendharreddy
1497690044899,cinegen
1497690044899,meal
1497690044899,GeekAb
1497690044899,fmbyv
1497690044899,dhyegofernando
1497690044899,acsrujan
1497690044899,kunnix
1497690044899,jovil
1497690044899,SueldoSales
1497690044899,meeeable
1497690044899,katia-utochkina
1497690044899,cneiman
1497690044899,nzuzondlovu
1497690044899,russll
1497690044899,vicentedealencar
1497690044899,MluciS
1497690044899,pbuzdin
1497690044899,8parth
1497690044899,KozTv
1497690044899,kapziel
1497690044899,landestates
1497690044899,gisminister
1497690044899,alaypanov
1497690044899,pareeksourabh
1497690044899,vizavi21
1497690044899,alinecrsouza
1497690044899,Chariyski
1497690044899,gruzzilkin
1497690044899,saru95
1497690044899,manparvesh
1497690044899,thinkstylestudio
1497690044899,matthewcorreia
1497690044899,babakness
1497690044899,jelmani
1497690044899,mlbaquerizo
1497690044899,Faiz7412
1497690044899,des-des
1497690044899,iamlos
1497690044899,leemour
1497690044899,MarcosTeles
1497690044899,sivartravis
1497690044899,akgoze
1497690044899,Vladlgk
1497690044899,adell04
1497690044899,lroman242
1497690044899,AgtLucas
1497690044899,joewoodcock
1497690044899,BryceRogers
1497690044899,viniciusvollrath
1497690044899,Metajake
1497690044899,dfrankland
1497690044899,Aidosmf
1497690044899,opusmagnum77
1497690044899,kstawiski
1497690044899,AlexM45
1497690044899,gabrielperales
1497690044899,pillowsoft
1497690044899,MisterReally
1497690044899,mckennapsean
1497690044899,kittenlogic
1497690044899,azat-io
1497690044899,n3k0
1497690044899,protomorph
1497690044899,JustBo
1497690044899,chisNaN
1497690044899,alexgarces
1497690044899,scootcho
1497690044899,dyelton
1497690044899,ayoub-belarbi
1497690044899,bertelledani
1497690044899,abraga
1497690044899,carmocode
1497690044899,brunoziie
1497690044899,saviomd
1497690044899,thiagoods
1497690044899,welksonramos
1497690044899,brenopolanski
1497690044899,fdaciuk
1497690044899,realronchi
1497690044899,gustavomeloweb
1497690044899,diogomoretti
1497690044899,thulioph
1497690044899,p0o
1497690044899,BraydenGirard
1497690044899,JuanCrg90
1497690044899,muladamai
1497690044899,adrianchinghc
1497690044899,Emualli
1497690044899,psicorpszone
1497690044899,nstevens
1497690044899,sohilpandya
1497690044899,carolinerusso
1497690044899,linth
1497690044899,ruvido
1497690044899,vancetran
1497690044899,Gabriel0402
1497690044899,canadacoder
1497690044899,richardfrost
1497690044899,maggiomaressoftware
1497690044899,lucascantor
1497690044899,bash
1497690044899,danielleplatt95
1497690044899,yolt
1497690044899,jeve75
1497690044899,atifkhan161
1497690044899,bnnsz
1497690044899,AdrianoCahete
1497690044899,irahulsingh
1497690044899,edwardcodes
1497690044899,iteles
1497690044899,nelsonic
1497946967373,wilchak
1497946967373,tameroski
1497946967373,fristonio
1497946967373,garethllew
1497946967373,yashagrawal3
1497946967373,sknepal
1497946967373,girisagar46
1497946967373,krishnarb3
1497946967373,lizard43
1497946967373,llagerlof
